ecg_signal
-0.41504836082458496
-0.4075556695461273
-0.4008345901966095
-0.3953706622123718
-0.3914279639720917
-0.3894672095775604
-0.38994017243385315
-0.3926829993724823
-0.3966025710105896
-0.4001017212867737
-0.40198367834091187
-0.4021032154560089
-0.40122973918914795
-0.40024250745773315
-0.39926454424858093
-0.3972739279270172
-0.392287015914917
-0.38183507323265076
-0.3634030818939209
-0.3346562385559082
-0.2933882176876068
-0.23706035315990448
-0.16176503896713257
-0.06075916811823845
0.0766456201672554
0.2645929157733917
0.5176335573196411
0.8452051281929016
1.244992733001709
1.6973545551300049
2.163022518157959
2.5856122970581055
2.8994333744049072
3.041853427886963
2.968047857284546
2.66454815864563
2.157301664352417
1.5106974840164185
0.8162868022918701
0.17310559749603271
-0.3353786766529083
-0.6607059836387634
-0.7986146807670593
-0.7847204804420471
-0.6787863373756409
-0.5442570447921753
-0.4308723211288452
-0.36553478240966797
-0.3523028790950775
-0.37895405292510986
-0.4262087941169739
-0.47606319189071655
-0.5169034600257874
-0.5446410179138184
-0.5606696605682373
-0.5685421228408813
-0.5713697075843811
-0.5709915161132812
-0.5685722827911377
-0.5654428005218506
-0.5632157921791077
-0.563141942024231
-0.5654313564300537
-0.5692429542541504
-0.5733556151390076
-0.5769005417823792
-0.5795705318450928
-0.5813419818878174
-0.5822491645812988
-0.5826084017753601
-0.5834596753120422
0.0
0.0
0.0
0.0
0.0
0.0
0.0
0.0
0.0
0.0
0.0
0.0
0.0
0.0
0.0
0.0
0.0
0.0
0.0
0.0
0.0
0.0
0.0
0.0
0.0
0.0
0.0
0.0
0.0
0.0
0.0
0.0
0.0
0.0
0.0
0.0
-0.4025512933731079
-0.39885422587394714
-0.396126925945282
-0.39592885971069336
-0.39834529161453247
-0.4024096131324768
-0.40691033005714417
-0.4111105501651764
-0.4150559902191162
-0.4193979501724243
-0.42483511567115784
-0.4313856363296509
-0.4378262460231781
-0.44177767634391785
-0.4408591389656067
-0.4348435699939728
-0.4278835356235504
-0.42915257811546326
-0.450309157371521
-0.4993791878223419
-0.5726284980773926
-0.6477731466293335
-0.6823986768722534
-0.6202988624572754
-0.4059034287929535
-0.0038233923260122538
0.5822162628173828
1.2982152700424194
2.042919635772705
2.6879215240478516
3.1114978790283203
3.235718250274658
3.052222728729248
2.624772310256958
2.066324234008789
1.500207543373108
1.022089958190918
0.6777838468551636
0.46295154094696045
0.3400360345840454
0.26135194301605225
0.18778687715530396
0.09792499244213104
-0.01185439620167017
-0.13273678719997406
-0.2505778968334198
-0.35219016671180725
-0.4294047951698303
-0.480406254529953
-0.5086727142333984
-0.5205792188644409
-0.5229900479316711
-0.5217478275299072
-0.5211330652236938
-0.5237702131271362
-0.530527651309967
-0.5404731631278992
-0.5512751340866089
-0.5602255463600159
-0.565526008605957
-0.5671296119689941
-0.566604495048523
-0.5661076903343201
-0.5671781897544861
-0.5701403021812439
-0.5743537545204163
-0.5788589715957642
-0.5828039050102234
-0.5854855179786682
-0.586327075958252
-0.5850933790206909
0.0
0.0
0.0
0.0
0.0
0.0
0.0
0.0
0.0
0.0
0.0
0.0
0.0
0.0
0.0
0.0
0.0
0.0
0.0
0.0
0.0
0.0
0.0
0.0
0.0
0.0
0.0
0.0
0.0
0.0
0.0
0.0
0.0
0.0
0.0
0.0
-0.7410027980804443
-0.7420200705528259
-0.7391986846923828
-0.7311068177223206
-0.7175997495651245
-0.7004752159118652
-0.6831515431404114
-0.6692965030670166
-0.661180317401886
-0.6588443517684937
-0.6605784893035889
-0.6641396284103394
-0.6675773859024048
-0.6690537333488464
-0.6661723852157593
-0.6559581160545349
-0.636161208152771
-0.607460618019104
-0.5752608776092529
-0.5496237874031067
-0.5423536896705627
-0.5610465407371521
-0.6010546088218689
-0.6380344033241272
-0.6256652474403381
-0.5036354660987854
-0.21810366213321686
0.24984954297542572
0.8600687980651855
1.5092872381210327
2.057112693786621
2.3763694763183594
2.4050796031951904
2.1720805168151855
1.7816957235336304
1.3668935298919678
1.0372871160507202
0.8469559550285339
0.7915863394737244
0.8279011249542236
0.9006325006484985
0.9643574357032776
0.9943787455558777
0.9871031641960144
0.9536047577857971
0.9106054306030273
0.8722861409187317
0.845182478427887
0.8271400332450867
0.8098440170288086
0.7831133008003235
0.7387047410011292
0.6721747517585754
0.5827419757843018
0.4719979763031006
0.34227341413497925
0.19506414234638214
0.029896311461925507
-0.1556433141231537
-0.363956093788147
-0.5936406850814819
-0.8354268074035645
-1.070510983467102
-1.2735097408294678
-1.419916033744812
-1.4950273036956787
-1.4999151229858398
-1.4513301849365234
-1.3756358623504639
-1.2997803688049316
-1.2432245016098022
0.0
0.0
0.0
0.0
0.0
0.0
0.0
0.0
0.0
0.0
0.0
0.0
0.0
0.0
0.0
0.0
0.0
0.0
0.0
0.0
0.0
0.0
0.0
0.0
0.0
0.0
0.0
0.0
0.0
0.0
0.0
0.0
0.0
0.0
0.0
0.0
-0.2439054399728775
-0.23817409574985504
-0.23517927527427673
-0.2311418354511261
-0.2229166477918625
-0.2097778618335724
-0.19412380456924438
-0.1806439459323883
-0.1741296648979187
-0.17682808637619019
-0.18666648864746094
-0.1974910944700241
-0.2015966773033142
-0.19359830021858215
-0.17374539375305176
-0.14871254563331604
-0.12888751924037933
-0.12278903275728226
-0.13073252141475677
-0.14059102535247803
-0.12818318605422974
-0.06343506276607513
0.07879970967769623
0.3069179654121399
0.6050249338150024
0.9342187643051147
1.2436034679412842
1.486859679222107
1.6368787288665771
1.6919504404067993
1.671769142150879
1.6067404747009277
1.5264192819595337
1.451648235321045
1.391900658607483
1.34678316116333
1.3096708059310913
1.2717044353485107
1.225037693977356
1.1647762060165405
1.0894829034805298
1.0005592107772827
0.9011380672454834
0.7950665950775146
0.6861163973808289
0.5771557688713074
0.469135582447052
0.36027687788009644
0.2462054342031479
0.12145639210939407
-0.018048785626888275
-0.172636479139328
-0.3377561569213867
-0.504656195640564
-0.6626263856887817
-0.8019663691520691
-0.9166345596313477
-1.0057435035705566
-1.0735455751419067
-1.128088116645813
-1.179092526435852
-1.2357449531555176
-1.3049697875976562
-1.390440583229065
-1.4921854734420776
-1.60639226436615
-1.7251832485198975
-1.8366422653198242
-1.9258124828338623
-1.977217197418213
-1.9786643981933594
0.0
0.0
0.0
0.0
0.0
0.0
0.0
0.0
0.0
0.0
0.0
0.0
0.0
0.0
0.0
0.0
0.0
0.0
0.0
0.0
0.0
0.0
0.0
0.0
0.0
0.0
0.0
0.0
0.0
0.0
0.0
0.0
0.0
0.0
0.0
0.0
-0.42913010716438293
-0.42214179039001465
-0.41463905572891235
-0.40863165259361267
-0.4057876765727997
-0.4069541096687317
-0.4116981029510498
-0.4181761145591736
-0.42355450987815857
-0.4249277114868164
-0.4203680157661438
-0.4096321165561676
-0.3942207098007202
-0.3768048584461212
-0.36028069257736206
-0.34679272770881653
-0.3370397686958313
-0.3301284909248352
-0.3241329491138458
-0.3172270655632019
-0.30879104137420654
-0.29953229427337646
-0.28975850343704224
-0.2756727933883667
-0.244777113199234
-0.1726849377155304
-0.024195587262511253
0.23919741809368134
0.645317018032074
1.1939576864242554
1.8423303365707397
2.500636339187622
3.0432376861572266
3.336000919342041
3.2739129066467285
2.817507743835449
2.014617443084717
0.9972438812255859
-0.04853475093841553
-0.9316281676292419
-1.5080190896987915
-1.7177588939666748
-1.5940442085266113
-1.2425647974014282
-0.8010236620903015
-0.39537134766578674
-0.1081419289112091
0.032986026257276535
0.047282300889492035
-0.01880812458693981
-0.1136896088719368
-0.1972268670797348
-0.2484010010957718
-0.26454418897628784
-0.2552267014980316
-0.23451894521713257
-0.21459273993968964
-0.20221534371376038
-0.19829273223876953
-0.19964227080345154
-0.20173119008541107
-0.20113703608512878
-0.19686417281627655
-0.19025318324565887
-0.1838488131761551
-0.17998278141021729
-0.17978371679782867
-0.1829179972410202
-0.18791097402572632
-0.19269967079162598
-0.19517305493354797
0.0
0.0
0.0
0.0
0.0
0.0
0.0
0.0
0.0
0.0
0.0
0.0
0.0
0.0
0.0
0.0
0.0
0.0
0.0
0.0
0.0
0.0
0.0
0.0
0.0
0.0
0.0
0.0
0.0
0.0
0.0
0.0
0.0
0.0
0.0
0.0
-0.35235723853111267
-0.3507944345474243
-0.33554038405418396
-0.30788496136665344
-0.273252010345459
-0.23914748430252075
-0.2124527245759964
-0.19706331193447113
-0.19266213476657867
-0.19494661688804626
-0.19708088040351868
-0.19173164665699005
-0.17291393876075745
-0.13702768087387085
-0.08286472409963608
-0.01086354348808527
0.0777927041053772
0.18171371519565582
0.29933860898017883
0.4287031888961792
0.5672734379768372
0.712028980255127
0.8597490191459656
1.0073140859603882
1.1518793106079102
1.2909549474716187
1.4225633144378662
1.5455189943313599
1.6595784425735474
1.7649966478347778
1.8611520528793335
1.9443365335464478
2.0053658485412598
2.028146266937256
1.9904717206954956
1.8678832054138184
1.6403318643569946
1.2999778985977173
0.8574420213699341
0.3438122272491455
-0.19310979545116425
-0.6978477835655212
-1.1191250085830688
-1.4209930896759033
-1.5898441076278687
-1.635358452796936
-1.5854517221450806
-1.4771361351013184
-1.3462861776351929
-1.219377875328064
-1.109405279159546
-1.016679286956787
-0.9335397481918335
-0.8507736921310425
-0.7631982564926147
-0.6724838614463806
-0.586531937122345
-0.5160747766494751
-0.4701624810695648
-0.45248666405677795
-0.45996320247650146
-0.4839179217815399
-0.5131282806396484
-0.5373720526695251
-0.550194501876831
-0.5501302480697632
-0.5402606129646301
-0.5264917016029358
-0.5152267813682556
-0.5111834406852722
-0.5160072445869446
0.0
0.0
0.0
0.0
0.0
0.0
0.0
0.0
0.0
0.0
0.0
0.0
0.0
0.0
0.0
0.0
0.0
0.0
0.0
0.0
0.0
0.0
0.0
0.0
0.0
0.0
0.0
0.0
0.0
0.0
0.0
0.0
0.0
0.0
0.0
0.0
-0.3661538064479828
-0.3903135359287262
-0.4153439700603485
-0.4408131241798401
-0.46441057324409485
-0.4829516112804413
-0.4936320185661316
-0.4949636161327362
-0.487149715423584
-0.4719688594341278
-0.45236295461654663
-0.4319208562374115
-0.4143940806388855
-0.4032779932022095
-0.4013350009918213
-0.4098351001739502
-0.427386611700058
-0.4485630393028259
-0.4629611372947693
-0.45554861426353455
-0.4088992476463318
-0.30713313817977905
-0.14040708541870117
0.09180700033903122
0.3801600933074951
0.707902193069458
1.0551763772964478
1.4029597043991089
1.7347865104675293
2.0358164310455322
2.2904515266418457
2.480548143386841
2.5859291553497314
2.587724208831787
2.4737188816070557
2.243914842605591
1.914158821105957
1.5160573720932007
1.0923869609832764
0.6887033581733704
0.34340032935142517
0.07938382774591446
-0.0998338833451271
-0.20841218531131744
-0.2716931998729706
-0.3173759877681732
-0.3672980070114136
-0.43224480748176575
-0.5110000967979431
-0.5933939814567566
-0.6658233404159546
-0.7170210480690002
-0.7420071959495544
-0.7431055903434753
-0.7282112240791321
-0.7075169086456299
-0.6901955604553223
-0.6821317672729492
-0.6851276159286499
-0.6974278688430786
-0.7150565385818481
-0.73336261510849
-0.7483189105987549
-0.7573596835136414
-0.7597193717956543
-0.7563320398330688
-0.7494054436683655
-0.7418098449707031
-0.7364127039909363
-0.7354735732078552
-0.7401914596557617
0.0
0.0
0.0
0.0
0.0
0.0
0.0
0.0
0.0
0.0
0.0
0.0
0.0
0.0
0.0
0.0
0.0
0.0
0.0
0.0
0.0
0.0
0.0
0.0
0.0
0.0
0.0
0.0
0.0
0.0
0.0
0.0
0.0
0.0
0.0
0.0
0.39097025990486145
0.43072882294654846
0.44925326108932495
0.4406120479106903
0.40491488575935364
0.34876421093940735
0.282954603433609
0.218078151345253
0.15991522371768951
0.1068529561161995
0.05088353902101517
-0.017821498215198517
-0.10470140725374222
-0.2062663584947586
-0.310198038816452
-0.40071555972099304
-0.4666088819503784
-0.5073152780532837
-0.5331409573554993
-0.5589713454246521
-0.5945418477058411
-0.6361813545227051
-0.6638638377189636
-0.6444321274757385
-0.5391495227813721
-0.31295615434646606
0.05621521547436714
0.5685847401618958
1.1949031352996826
1.8724322319030762
2.5083165168762207
2.9935402870178223
3.2272796630859375
3.146146535873413
2.748077392578125
2.0997610092163086
1.321574330329895
0.553645133972168
-0.08415907621383667
-0.5224807858467102
-0.7522389888763428
-0.8133153319358826
-0.770577609539032
-0.6888822317123413
-0.6157886981964111
-0.5750498175621033
-0.5692563056945801
-0.5878152847290039
-0.6161275506019592
-0.6425637006759644
-0.6614016890525818
-0.6719872355461121
-0.6760469079017639
-0.6753461956977844
-0.6707597374916077
-0.662430465221405
-0.650161862373352
-0.6336384415626526
-0.6126917004585266
-0.5878520607948303
-0.5608806610107422
-0.5346277952194214
-0.5119926929473877
-0.49460917711257935
-0.48224538564682007
-0.4733678102493286
-0.46637046337127686
-0.4604520797729492
-0.45547616481781006
-0.4510689675807953
-0.4458775222301483
0.0
0.0
0.0
0.0
0.0
0.0
0.0
0.0
0.0
0.0
0.0
0.0
0.0
0.0
0.0
0.0
0.0
0.0
0.0
0.0
0.0
0.0
0.0
0.0
0.0
0.0
0.0
0.0
0.0
0.0
0.0
0.0
0.0
0.0
0.0
0.0
-0.22931833565235138
-0.23805482685565948
-0.2440146952867508
-0.2468315064907074
-0.2466084510087967
-0.24357451498508453
-0.23807890713214874
-0.2309211790561676
-0.22353024780750275
-0.21757303178310394
-0.21417236328125
-0.21345339715480804
-0.2150217890739441
-0.21925151348114014
-0.2285475879907608
-0.24764828383922577
-0.28265640139579773
-0.3393170237541199
-0.4213016629219055
-0.5286118388175964
-0.655415415763855
-0.7868335247039795
-0.8956475257873535
-0.941330075263977
-0.8737444281578064
-0.6423978209495544
-0.21059823036193848
0.4273275136947632
1.229607343673706
2.09839129447937
2.887583017349243
3.4322874546051025
3.595654249191284
3.317863702774048
2.646009683609009
1.7279692888259888
0.768084704875946
-0.038962654769420624
-0.5680654644966125
-0.7924187779426575
-0.7724344730377197
-0.6156649589538574
-0.42975538969039917
-0.28863224387168884
-0.22111406922340393
-0.21899369359016418
-0.2547784447669983
-0.2991219460964203
-0.33195117115974426
-0.345903605222702
-0.34386271238327026
-0.3336698114871979
-0.32293665409088135
-0.3158862590789795
-0.31283438205718994
-0.31170743703842163
-0.3102620244026184
-0.3076709508895874
-0.30479419231414795
-0.30332762002944946
-0.30461451411247253
-0.3089054524898529
-0.3153470456600189
-0.3224274218082428
-0.32845109701156616
-0.3318900167942047
-0.33172616362571716
-0.3278270661830902
-0.321117103099823
-0.31327173113822937
-0.30599650740623474
0.0
0.0
0.0
0.0
0.0
0.0
0.0
0.0
0.0
0.0
0.0
0.0
0.0
0.0
0.0
0.0
0.0
0.0
0.0
0.0
0.0
0.0
0.0
0.0
0.0
0.0
0.0
0.0
0.0
0.0
0.0
0.0
0.0
0.0
0.0
0.0
-0.22862310707569122
-0.25557976961135864
-0.2797889709472656
-0.29932940006256104
-0.3124164640903473
-0.318340539932251
-0.31800776720046997
-0.3137569725513458
-0.308481901884079
-0.30445238947868347
-0.30242714285850525
-0.30154135823249817
-0.3000504672527313
-0.2965385913848877
-0.2909642457962036
-0.2850189805030823
-0.2815839350223541
-0.2833964228630066
-0.29127657413482666
-0.30235761404037476
-0.30873045325279236
-0.2968626618385315
-0.24816377460956573
-0.14111359417438507
0.04472113028168678
0.3229224681854248
0.693750262260437
1.1390162706375122
1.6207985877990723
2.0857770442962646
2.4750726222991943
2.7371158599853516
2.839369297027588
2.7747316360473633
2.5604166984558105
2.230243444442749
1.8240318298339844
1.3786791563034058
0.924062192440033
0.48401573300361633
0.0799412950873375
-0.2665214538574219
-0.5343910455703735
-0.708055853843689
-0.7835131883621216
-0.7725457549095154
-0.7019153237342834
-0.6069995760917664
-0.5220487117767334
-0.4709130525588989
-0.4618467390537262
-0.48807671666145325
-0.533309817314148
-0.5794675350189209
-0.6134427785873413
-0.6305782198905945
-0.6342509984970093
-0.6325590014457703
-0.6339818239212036
-0.6438568234443665
-0.6628206372261047
-0.6874198317527771
-0.7122513651847839
-0.7325089573860168
-0.7458305358886719
-0.7528011202812195
-0.7561323642730713
-0.7591158747673035
-0.764175295829773
-0.7721414566040039
-0.7823907136917114
0.0
0.0
0.0
0.0
0.0
0.0
0.0
0.0
0.0
0.0
0.0
0.0
0.0
0.0
0.0
0.0
0.0
0.0
0.0
0.0
0.0
0.0
0.0
0.0
0.0
0.0
0.0
0.0
0.0
0.0
0.0
0.0
0.0
0.0
0.0
0.0
-0.2534434199333191
-0.2659778296947479
-0.27572083473205566
-0.2829516530036926
-0.2877461612224579
-0.2886865735054016
-0.28317946195602417
-0.2695508599281311
-0.24956178665161133
-0.2292843461036682
-0.21710248291492462
-0.21953780949115753
-0.23729278147220612
-0.26403743028640747
-0.28883662819862366
-0.3008565306663513
-0.29371020197868347
-0.26728373765945435
-0.22650882601737976
-0.17798957228660583
-0.1258571594953537
-0.06804022192955017
0.005911677610129118
0.11413484811782837
0.2779628038406372
0.5142890214920044
0.8275116682052612
1.20472252368927
1.616470217704773
2.022519826889038
2.3795852661132812
2.647740125656128
2.7940101623535156
2.7939419746398926
2.633071184158325
2.3097426891326904
1.8392254114151
1.2573615312576294
0.6208027601242065
0.0009908268693834543
-0.5288637280464172
-0.9108896255493164
-1.1176304817199707
-1.158625602722168
-1.075303316116333
-0.926177978515625
-0.7684804201126099
-0.6432758569717407
-0.5686891674995422
-0.5418102145195007
-0.546449601650238
-0.5625720024108887
-0.573935866355896
-0.5722196698188782
-0.5575848817825317
-0.5365589261054993
-0.5183810591697693
-0.511008083820343
-0.5180783271789551
-0.5379629731178284
-0.5651984810829163
-0.5933434367179871
-0.6175498366355896
-0.6355102062225342
-0.6466973423957825
-0.6509918570518494
-0.6480427980422974
-0.6378881931304932
-0.6221606135368347
-0.6046282052993774
-0.590332567691803
0.0
0.0
0.0
0.0
0.0
0.0
0.0
0.0
0.0
0.0
0.0
0.0
0.0
0.0
0.0
0.0
0.0
0.0
0.0
0.0
0.0
0.0
0.0
0.0
0.0
0.0
0.0
0.0
0.0
0.0
0.0
0.0
0.0
0.0
0.0
0.0
-0.7173900604248047
-0.744053304195404
-0.7682532668113708
-0.7857115268707275
-0.7931791543960571
-0.7891965508460999
-0.774469792842865
-0.7518219351768494
-0.7257056832313538
-0.7012962698936462
-0.6832852363586426
-0.6746322512626648
-0.675553560256958
-0.682875394821167
-0.6897377371788025
-0.685700535774231
-0.657490611076355
-0.5907143354415894
-0.47267022728919983
-0.295917272567749
-0.06160798668861389
0.21882669627666473
0.5248168706893921
0.830818235874176
1.112426519393921
1.3524556159973145
1.5448435544967651
1.6948715448379517
1.815395712852478
1.920232892036438
2.0170750617980957
2.1027562618255615
2.1630465984344482
2.1773486137390137
2.1264119148254395
1.9996962547302246
1.7993061542510986
1.5393025875091553
1.2413978576660156
0.9293496608734131
0.6242587566375732
0.3419003486633301
0.09205489605665207
-0.12082130461931229
-0.2963041067123413
-0.43657100200653076
-0.5450972318649292
-0.6256401538848877
-0.6816257834434509
-0.7159709930419922
-0.7312803864479065
-0.7302817106246948
-0.7162865996360779
-0.693422794342041
-0.6664653420448303
-0.6402910351753235
-0.6191272139549255
-0.6058124899864197
-0.6012774109840393
-0.6044445633888245
-0.612644612789154
-0.6223838925361633
-0.6300814747810364
-0.6325341463088989
-0.6272439360618591
-0.612892210483551
-0.5899720788002014
-0.5612183809280396
-0.5313727259635925
-0.5060803294181824
-0.49018505215644836
0.0
0.0
0.0
0.0
0.0
0.0
0.0
0.0
0.0
0.0
0.0
0.0
0.0
0.0
0.0
0.0
0.0
0.0
0.0
0.0
0.0
0.0
0.0
0.0
0.0
0.0
0.0
0.0
0.0
0.0
0.0
0.0
0.0
0.0
0.0
0.0
-0.001989329233765602
-0.03143720328807831
-0.05893414840102196
-0.0792054831981659
-0.0879969522356987
-0.08334993571043015
-0.06616906821727753
-0.04002214968204498
-0.010330045595765114
0.016858596354722977
0.03629251942038536
0.04482637345790863
0.04221717268228531
0.031101660802960396
0.016101181507110596
0.0023055938072502613
-0.006344443187117577
-0.008080805651843548
-0.003099402179941535
0.00805669091641903
0.026937827467918396
0.059288252145051956
0.11573103815317154
0.2106512486934662
0.35953661799430847
0.575145959854126
0.8627636432647705
1.215174913406372
1.6089304685592651
2.004100799560547
2.3490993976593018
2.590219497680664
2.6832199096679688
2.6029675006866455
2.3477442264556885
1.9372764825820923
1.406613826751709
0.7996785044670105
0.16531036794185638
-0.4444810748100281
-0.9770892262458801
-1.385589361190796
-1.6383994817733765
-1.7282150983810425
-1.6750060319900513
-1.52052640914917
-1.3162810802459717
-1.1099776029586792
-0.9354466795921326
-0.8085801005363464
-0.7289345860481262
-0.6848494410514832
-0.6596227884292603
-0.6370140314102173
-0.6052649617195129
-0.5593732595443726
-0.5014964938163757
-0.43949005007743835
-0.38398149609565735
-0.3448954224586487
-0.32850638031959534
-0.33576127886772156
-0.36210936307907104
-0.3987586200237274
-0.4350912272930145
-0.46165454387664795
-0.47279053926467896
-0.46796953678131104
-0.4514133036136627
-0.4303026497364044
-0.4123193025588989
0.0
0.0
0.0
0.0
0.0
0.0
0.0
0.0
0.0
0.0
0.0
0.0
0.0
0.0
0.0
0.0
0.0
0.0
0.0
0.0
0.0
0.0
0.0
0.0
0.0
0.0
0.0
0.0
0.0
0.0
0.0
0.0
0.0
0.0
0.0
0.0
-0.5126224160194397
-0.5078302621841431
-0.504608154296875
-0.5039530396461487
-0.506337583065033
-0.5112735033035278
-0.5169241428375244
-0.5204486846923828
-0.5194934010505676
-0.5144031643867493
-0.5098862648010254
-0.5147367715835571
-0.5390625
-0.5897980332374573
-0.666275680065155
-0.7577316761016846
-0.8438926339149475
-0.8986989855766296
-0.8962399959564209
-0.8173043727874756
-0.654631495475769
-0.4151053726673126
-0.1179584264755249
0.210527703166008
0.5438728928565979
0.8611800074577332
1.1498864889144897
1.405198097229004
1.6275097131729126
1.8195847272872925
1.9844911098480225
2.1240808963775635
2.23720383644104
2.3173604011535645
2.3507797718048096
2.3168859481811523
2.1927754878997803
1.9615864753723145
1.6222622394561768
1.1965324878692627
0.7290523648262024
0.2789763808250427
-0.09502656012773514
-0.3510817289352417
-0.47556599974632263
-0.4854724109172821
-0.42116668820381165
-0.3326796889305115
-0.2647154629230499
-0.24539977312088013
-0.281818151473999
-0.36260494589805603
-0.4654075801372528
-0.5658506751060486
-0.6449140906333923
-0.6929377317428589
-0.7099683880805969
-0.7032890319824219
-0.683533251285553
-0.6608736515045166
-0.6424460411071777
-0.6315440535545349
-0.6283559799194336
-0.6314116716384888
-0.6387855410575867
-0.6485409736633301
-0.658600389957428
-0.6666448712348938
-0.6705008745193481
-0.6689490079879761
-0.6624419093132019
0.0
0.0
0.0
0.0
0.0
0.0
0.0
0.0
0.0
0.0
0.0
0.0
0.0
0.0
0.0
0.0
0.0
0.0
0.0
0.0
0.0
0.0
0.0
0.0
0.0
0.0
0.0
0.0
0.0
0.0
0.0
0.0
0.0
0.0
0.0
0.0
-0.37034520506858826
-0.36452212929725647
-0.36293816566467285
-0.36630526185035706
-0.37450680136680603
-0.38626787066459656
-0.39914944767951965
-0.4099899232387543
-0.4157197177410126
-0.414291113615036
-0.40541768074035645
-0.3909386992454529
-0.3747554421424866
-0.3622998893260956
-0.3594414293766022
-0.37079617381095886
-0.3976513743400574
-0.4360353350639343
-0.4756770133972168
-0.500568687915802
-0.4914394021034241
-0.42968907952308655
-0.3016025722026825
-0.10146639496088028
0.1672869175672531
0.4929298460483551
0.8576316833496094
1.2401394844055176
1.6182701587677002
1.9707403182983398
2.27791690826416
2.521218776702881
2.6815037727355957
2.7377982139587402
2.668482780456543
2.4565987586975098
2.098844289779663
1.6148440837860107
1.051296353340149
0.4765602648258209
-0.034607894718647
-0.42116880416870117
-0.6526185274124146
-0.7354874610900879
-0.7072761058807373
-0.6211947798728943
-0.5284839868545532
-0.4649512469768524
-0.4454177916049957
-0.4659949839115143
-0.5113413333892822
-0.5631315112113953
-0.6066837310791016
-0.6342267990112305
-0.64485102891922
-0.6422693133354187
-0.6319062113761902
-0.6185696125030518
-0.6053252220153809
-0.5935378670692444
-0.5836241841316223
-0.5759257674217224
-0.5712133646011353
-0.5705983638763428
-0.5749515891075134
-0.5841823816299438
-0.5968122482299805
-0.6101329326629639
-0.620952308177948
-0.6266524195671082
-0.6261534690856934
0.0
0.0
0.0
0.0
0.0
0.0
0.0
0.0
0.0
0.0
0.0
0.0
0.0
0.0
0.0
0.0
0.0
0.0
0.0
0.0
0.0
0.0
0.0
0.0
0.0
0.0
0.0
0.0
0.0
0.0
0.0
0.0
0.0
0.0
0.0
0.0
-0.86979740858078
-0.8591647148132324
-0.8491536378860474
-0.8429129719734192
-0.8410999178886414
-0.8412418961524963
-0.8392078876495361
-0.8319081664085388
-0.8194068074226379
-0.8050466179847717
-0.7936314344406128
-0.7889786958694458
-0.7922439575195312
-0.8014841079711914
-0.8120843768119812
-0.8176857829093933
-0.8118178248405457
-0.7906173467636108
-0.7562471032142639
-0.719231128692627
-0.6970251798629761
-0.7069240808486938
-0.7541657090187073
-0.8197439312934875
-0.854946494102478
-0.7890647053718567
-0.5523412823677063
-0.10891575366258621
0.513192355632782
1.2120813131332397
1.8345847129821777
2.229318141937256
2.308497190475464
2.0863351821899414
1.6715790033340454
1.2179521322250366
0.8604637980461121
0.6703384518623352
0.6458340287208557
0.7342414855957031
0.8666755557060242
0.9870984554290771
1.0659737586975098
1.0991355180740356
1.098357081413269
1.080615758895874
1.0603022575378418
1.04548978805542
1.0375088453292847
1.0325286388397217
1.0239264965057373
1.0044312477111816
0.9673663377761841
0.9068760871887207
0.817590594291687
0.6944339871406555
0.5330943465232849
0.33133664727211
0.09113068878650665
-0.1787295937538147
-0.4605720043182373
-0.7282504439353943
-0.9517428278923035
-1.1057430505752563
-1.179128885269165
-1.180467963218689
-1.1359829902648926
-1.0802221298217773
-1.0435956716537476
-1.0424009561538696
-1.0753650665283203
0.0
0.0
0.0
0.0
0.0
0.0
0.0
0.0
0.0
0.0
0.0
0.0
0.0
0.0
0.0
0.0
0.0
0.0
0.0
0.0
0.0
0.0
0.0
0.0
0.0
0.0
0.0
0.0
0.0
0.0
0.0
0.0
0.0
0.0
0.0
0.0
-0.4370422065258026
-0.43934154510498047
-0.4478188157081604
-0.4591045677661896
-0.46879062056541443
-0.47289836406707764
-0.4691077470779419
-0.4573657810688019
-0.4397487938404083
-0.41969749331474304
-0.40089261531829834
-0.386087566614151
-0.3761882185935974
-0.36981073021888733
-0.36343276500701904
-0.35206857323646545
-0.33019745349884033
-0.2925766110420227
-0.23465637862682343
-0.1525893658399582
-0.043159354478120804
0.09589935094118118
0.26497882604599
0.46143218874931335
0.67904132604599
0.9090059399604797
1.142642855644226
1.3747526407241821
1.6055241823196411
1.8387863636016846
2.0759119987487793
2.3073441982269287
2.5061378479003906
2.628365993499756
2.622809886932373
2.4478955268859863
2.089604139328003
1.5725483894348145
0.9586538672447205
0.33292141556739807
-0.21883583068847656
-0.6322055459022522
-0.8786261081695557
-0.9678426384925842
-0.9389488101005554
-0.8445960879325867
-0.7346155047416687
-0.6443274021148682
-0.5900720953941345
-0.5714595913887024
-0.5777234435081482
-0.5949352383613586
-0.6115147471427917
-0.6208693385124207
-0.6214005947113037
-0.6149705052375793
-0.6050307154655457
-0.5951888561248779
-0.5884118676185608
-0.5866895914077759
-0.5909082293510437
-0.6008042693138123
-0.6150093078613281
-0.6312612295150757
-0.6468377709388733
-0.6591853499412537
-0.6665877103805542
-0.6686260104179382
-0.6662448644638062
-0.6614153385162354
-0.6565371155738831
0.0
0.0
0.0
0.0
0.0
0.0
0.0
0.0
0.0
0.0
0.0
0.0
0.0
0.0
0.0
0.0
0.0
0.0
0.0
0.0
0.0
0.0
0.0
0.0
0.0
0.0
0.0
0.0
0.0
0.0
0.0
0.0
0.0
0.0
0.0
0.0
-0.4428096413612366
-0.4475122392177582
-0.45145848393440247
-0.45570969581604004
-0.4604150652885437
-0.4642612636089325
-0.4642254710197449
-0.45611515641212463
-0.43604132533073425
-0.40221792459487915
-0.35598307847976685
-0.3012981414794922
-0.24301376938819885
-0.18503069877624512
-0.12938930094242096
-0.07636541873216629
-0.024711420759558678
0.028831742703914642
0.0906291976571083
0.1705828756093979
0.28043806552886963
0.429700642824173
0.6207720041275024
0.8460444211959839
1.0890365839004517
1.3293792009353638
1.5490870475769043
1.7368284463882446
1.888342022895813
2.0036449432373047
2.0833396911621094
2.126150131225586
2.128387928009033
2.0847554206848145
1.9896011352539062
1.8382149934768677
1.6283032894134521
1.3619383573532104
1.0478336811065674
0.7029609680175781
0.35201340913772583
0.023796584457159042
-0.254900723695755
-0.46596387028694153
-0.6045850515365601
-0.67986661195755
-0.7109070420265198
-0.7198840379714966
-0.7251025438308716
-0.7368542551994324
-0.7572285532951355
-0.7829298973083496
-0.8089985847473145
-0.8315615057945251
-0.8488664031028748
-0.8609978556632996
-0.8691374659538269
-0.8749443292617798
-0.8800902962684631
-0.8857918977737427
-0.8924071192741394
-0.899408757686615
-0.90593022108078
-0.9116477370262146
-0.9174250960350037
-0.9251983761787415
-0.9370546936988831
-0.9540121555328369
-0.9752306938171387
-0.9980950355529785
-1.0190343856811523
0.0
0.0
0.0
0.0
0.0
0.0
0.0
0.0
0.0
0.0
0.0
0.0
0.0
0.0
0.0
0.0
0.0
0.0
0.0
0.0
0.0
0.0
0.0
0.0
0.0
0.0
0.0
0.0
0.0
0.0
0.0
0.0
0.0
0.0
0.0
0.0
-0.5109077095985413
-0.5187071561813354
-0.5192038416862488
-0.5123406648635864
-0.49994707107543945
-0.4849371910095215
-0.4705210030078888
-0.4599233567714691
-0.45654478669166565
-0.46403035521507263
-0.4857253134250641
-0.5235041975975037
-0.5764973759651184
-0.6403148770332336
-0.7069844007492065
-0.7654346823692322
-0.8023415207862854
-0.8034098744392395
-0.7552940845489502
-0.6480973362922668
-0.4778558015823364
-0.24801647663116455
0.030910538509488106
0.343533992767334
0.6726145148277283
1.0015486478805542
1.3154736757278442
1.601320743560791
1.8479074239730835
2.046809434890747
2.1935908794403076
2.2880613803863525
2.3324809074401855
2.327960968017578
2.2708425521850586
2.1515328884124756
1.9575936794281006
1.680891513824463
1.326167106628418
0.9167904257774353
0.49388399720191956
0.10765887796878815
-0.1964733600616455
-0.3916288912296295
-0.477298766374588
-0.4780048727989197
-0.43345481157302856
-0.3845193684101105
-0.360848993062973
-0.37462618947029114
-0.4216727912425995
-0.48778384923934937
-0.5564947724342346
-0.6150275468826294
-0.6569970846176147
-0.682171642780304
-0.6943902373313904
-0.6988217234611511
-0.6995831727981567
-0.6984878778457642
-0.695259690284729
-0.688878059387207
-0.6791185140609741
-0.6672854423522949
-0.6557515859603882
-0.6468037962913513
-0.641739547252655
-0.640796422958374
-0.6436967849731445
-0.6500825881958008
-0.6593339443206787
0.0
0.0
0.0
0.0
0.0
0.0
0.0
0.0
0.0
0.0
0.0
0.0
0.0
0.0
0.0
0.0
0.0
0.0
0.0
0.0
0.0
0.0
0.0
0.0
0.0
0.0
0.0
0.0
0.0
0.0
0.0
0.0
0.0
0.0
0.0
0.0
-0.3328104019165039
-0.3360881805419922
-0.3439333438873291
-0.354469895362854
-0.3645768165588379
-0.3706686496734619
-0.3698102831840515
-0.3607308566570282
-0.3442983031272888
-0.32326701283454895
-0.30143460631370544
-0.28252848982810974
-0.26915809512138367
-0.2621363699436188
-0.2604111135005951
-0.2616655230522156
-0.26335155963897705
-0.26366713643074036
-0.2619452476501465
-0.25812429189682007
-0.2513478100299835
-0.23815862834453583
-0.21099111437797546
-0.15758690237998962
-0.06164764240384102
0.09526771306991577
0.33067840337753296
0.6568614840507507
1.0750783681869507
1.5687065124511719
2.0971274375915527
2.5938873291015625
2.9729726314544678
3.1449193954467773
3.04024600982666
2.633336305618286
1.9577661752700806
1.1057547330856323
0.2095567286014557
-0.590644121170044
-1.182234525680542
-1.5071299076080322
-1.5712400674819946
-1.4341816902160645
-1.1844396591186523
-0.9101056456565857
-0.6757410764694214
-0.5120170712471008
-0.4187527596950531
-0.37675940990448
-0.3617108166217804
-0.35441553592681885
-0.3450026214122772
-0.33171889185905457
-0.31695935130119324
-0.30341824889183044
-0.292156457901001
-0.28273868560791016
-0.27439969778060913
-0.2670246362686157
-0.2613338828086853
-0.258366197347641
-0.25871825218200684
-0.26200559735298157
-0.26681116223335266
-0.27110302448272705
-0.2728740870952606
-0.2707307040691376
-0.26431381702423096
-0.25455939769744873
-0.24374361336231232
0.0
0.0
0.0
0.0
0.0
0.0
0.0
0.0
0.0
0.0
0.0
0.0
0.0
0.0
0.0
0.0
0.0
0.0
0.0
0.0
0.0
0.0
0.0
0.0
0.0
0.0
0.0
0.0
0.0
0.0
0.0
0.0
0.0
0.0
0.0
0.0
-0.9087393283843994
-0.9061591029167175
-0.9043328762054443
-0.9025352001190186
-0.9001174569129944
-0.8967450857162476
-0.8925364017486572
-0.8880355358123779
-0.8839865922927856
-0.880913257598877
-0.8785644173622131
-0.8753719329833984
-0.8681614398956299
-0.852375328540802
-0.8229097723960876
-0.7753475904464722
-0.7070939540863037
-0.6179132461547852
-0.5096442699432373
-0.385274738073349
-0.24783967435359955
-0.09963762760162354
0.057947754859924316
0.2240145057439804
0.39732199907302856
0.5754281282424927
0.7541665434837341
0.9277523756027222
1.0895442962646484
1.2331507205963135
1.3533738851547241
1.4466304779052734
1.5108379125595093
1.5451020002365112
1.5496540069580078
1.526309609413147
1.4793317317962646
1.416122317314148
1.3469749689102173
1.2834097146987915
1.235334038734436
1.2080769538879395
1.2006410360336304
1.206047534942627
1.213605284690857
1.2119531631469727
1.1913918256759644
1.1445422172546387
1.0654549598693848
0.9483610987663269
0.7876662611961365
0.5801231265068054
0.3286353647708893
0.04565420374274254
-0.24634048342704773
-0.5186972618103027
-0.7440031170845032
-0.9041833281517029
-0.9957876801490784
-1.0301830768585205
-1.0287319421768188
-1.0152137279510498
-1.0086289644241333
-1.0188844203948975
-1.0462913513183594
-1.084233045578003
-1.1234060525894165
-1.155860424041748
-1.1775411367416382
-1.188844919204712
-1.1934958696365356
0.0
0.0
0.0
0.0
0.0
0.0
0.0
0.0
0.0
0.0
0.0
0.0
0.0
0.0
0.0
0.0
0.0
0.0
0.0
0.0
0.0
0.0
0.0
0.0
0.0
0.0
0.0
0.0
0.0
0.0
0.0
0.0
0.0
0.0
0.0
0.0
0.2850464880466461
0.28695204854011536
0.29057440161705017
0.2952088415622711
0.3000076711177826
0.3046000301837921
0.3094308078289032
0.315501868724823
0.32362431287765503
0.3335658311843872
0.34347012639045715
0.3498138189315796
0.3481981158256531
0.33535459637641907
0.3124650716781616
0.2889167070388794
0.2843165397644043
0.3260481655597687
0.4409363269805908
0.642734706401825
0.9207156300544739
1.2361761331558228
1.5311914682388306
1.7477283477783203
1.8486884832382202
1.8303451538085938
1.720172643661499
1.5623722076416016
1.3996162414550781
1.2597895860671997
1.151882290840149
1.069789171218872
0.999885618686676
0.9283241033554077
0.845633327960968
0.7479879260063171
0.6358239054679871
0.5112087726593018
0.3755231499671936
0.22854921221733093
0.06917095184326172
-0.10299338400363922
-0.28611263632774353
-0.47565576434135437
-0.665075421333313
-0.8472301363945007
-1.0158871412277222
-1.1667979955673218
-1.2981038093566895
-1.4100056886672974
-1.5037636756896973
-1.5803309679031372
-1.639230489730835
-1.6783320903778076
-1.6947360038757324
-1.6862397193908691
-1.65239417552948
-1.5944135189056396
-1.5140708684921265
-1.412566065788269
-1.2904636859893799
-1.1490199565887451
-0.9920473694801331
-0.8268148303031921
-0.6629041433334351
-0.5092495083808899
-0.3708750009536743
-0.2472236603498459
-0.13313649594783783
-0.022032320499420166
0.09036830812692642
0.0
0.0
0.0
0.0
0.0
0.0
0.0
0.0
0.0
0.0
0.0
0.0
0.0
0.0
0.0
0.0
0.0
0.0
0.0
0.0
0.0
0.0
0.0
0.0
0.0
0.0
0.0
0.0
0.0
0.0
0.0
0.0
0.0
0.0
0.0
0.0
-0.4636566936969757
-0.48705217242240906
-0.5067729949951172
-0.5198578238487244
-0.524752140045166
-0.5215018391609192
-0.5114116072654724
-0.49648749828338623
-0.4790276288986206
-0.4615078270435333
-0.44656991958618164
-0.4367637038230896
-0.4338996708393097
-0.43833422660827637
-0.4488294720649719
-0.46343109011650085
-0.4810643196105957
-0.5027353763580322
-0.5310495495796204
-0.5675346851348877
-0.6085360050201416
-0.6413830518722534
-0.6426014304161072
-0.579343855381012
-0.41447222232818604
-0.11513684689998627
0.3359566628932953
0.928578794002533
1.6159703731536865
2.313685655593872
2.9104301929473877
3.291456699371338
3.3695034980773926
3.1133294105529785
2.5626046657562256
1.8217414617538452
1.0330106019973755
0.3375687003135681
-0.16202609241008759
-0.424910306930542
-0.47377023100852966
-0.37715253233909607
-0.22100527584552765
-0.08081972599029541
-0.003407173091545701
-0.001998534658923745
-0.06284640729427338
-0.1580371856689453
-0.2585510015487671
-0.343217670917511
-0.40192508697509766
-0.4339987635612488
-0.4441851079463959
-0.4387863278388977
-0.42346787452697754
-0.40284714102745056
-0.3809984028339386
-0.36185339093208313
-0.3489610254764557
-0.34473341703414917
-0.3497160077095032
-0.36238089203834534
-0.3795832395553589
-0.39746689796447754
-0.41244158148765564
-0.4219079613685608
-0.42460012435913086
-0.42058831453323364
-0.4110350012779236
-0.39780500531196594
-0.38310009241104126
0.0
0.0
0.0
0.0
0.0
0.0
0.0
0.0
0.0
0.0
0.0
0.0
0.0
0.0
0.0
0.0
0.0
0.0
0.0
0.0
0.0
0.0
0.0
0.0
0.0
0.0
0.0
0.0
0.0
0.0
0.0
0.0
0.0
0.0
0.0
0.0
-0.41165629029273987
-0.45169496536254883
-0.4842781722545624
-0.5053519606590271
-0.5125135183334351
-0.5059890151023865
-0.4892009198665619
-0.46829941868782043
-0.450447678565979
-0.4413689076900482
-0.443202942609787
-0.45366403460502625
-0.4668898582458496
-0.47562599182128906
-0.47395920753479004
-0.4597872495651245
-0.4363601803779602
-0.412324458360672
-0.39979979395866394
-0.4104076623916626
-0.4499658942222595
-0.5134294629096985
-0.5819355845451355
-0.6232089400291443
-0.5955438613891602
-0.4548543393611908
-0.16417738795280457
0.2949979901313782
0.9109671115875244
1.6327296495437622
2.3684146404266357
2.9959421157836914
3.38752818107605
3.4438066482543945
3.127216339111328
2.481459856033325
1.626923680305481
0.7306522727012634
-0.04000110551714897
-0.563701331615448
-0.7948303818702698
-0.7668469548225403
-0.5703689455986023
-0.316647469997406
-0.10131379216909409
0.019242392852902412
0.03362443298101425
-0.03420903906226158
-0.1426655352115631
-0.2503167986869812
-0.3281959295272827
-0.3645879030227661
-0.3633188307285309
-0.33815762400627136
-0.3061421513557434
-0.281942218542099
-0.2743842303752899
-0.2853845953941345
-0.310904860496521
-0.34318259358406067
-0.37340670824050903
-0.39411917328834534
-0.4008536636829376
-0.39281389117240906
-0.37265443801879883
-0.3455582559108734
-0.31784185767173767
-0.2953753173351288
-0.2821814715862274
-0.27957630157470703
-0.2860832214355469
0.0
0.0
0.0
0.0
0.0
0.0
0.0
0.0
0.0
0.0
0.0
0.0
0.0
0.0
0.0
0.0
0.0
0.0
0.0
0.0
0.0
0.0
0.0
0.0
0.0
0.0
0.0
0.0
0.0
0.0
0.0
0.0
0.0
0.0
0.0
0.0
-0.36668363213539124
-0.3608669340610504
-0.3469221293926239
-0.3275035619735718
-0.306405633687973
-0.28770002722740173
-0.2747974097728729
-0.26962587237358093
-0.27211248874664307
-0.28009000420570374
-0.2896753251552582
-0.2961171865463257
-0.29501789808273315
-0.283671110868454
-0.2621089220046997
-0.23346464335918427
-0.20343510806560516
-0.17882217466831207
-0.1652994155883789
-0.16477978229522705
-0.17306333780288696
-0.17862753570079803
-0.16324792802333832
-0.10456167906522751
0.020040571689605713
0.22917436063289642
0.5334938168525696
0.9318476319313049
1.4071555137634277
1.9225531816482544
2.420017719268799
2.8246119022369385
3.0563416481018066
3.0484180450439453
2.7670459747314453
2.225794792175293
1.4885139465332031
0.6583272814750671
-0.1449611335992813
-0.8126311302185059
-1.2716025114059448
-1.498323917388916
-1.5181388854980469
-1.3913078308105469
-1.1913204193115234
-0.9832470417022705
-0.8089814186096191
-0.6829348206520081
-0.5975333452224731
-0.5344740152359009
-0.47638195753097534
-0.4144718050956726
-0.3502955436706543
-0.2924063205718994
-0.25060850381851196
-0.23080489039421082
-0.2324797809123993
-0.24930131435394287
-0.27195438742637634
-0.29160627722740173
-0.3024890422821045
-0.3028005361557007
-0.2940599024295807
-0.2797059714794159
-0.26378491520881653
-0.2501305341720581
-0.24187953770160675
-0.24094054102897644
-0.2473272979259491
-0.25876331329345703
-0.2710888087749481
0.0
0.0
0.0
0.0
0.0
0.0
0.0
0.0
0.0
0.0
0.0
0.0
0.0
0.0
0.0
0.0
0.0
0.0
0.0
0.0
0.0
0.0
0.0
0.0
0.0
0.0
0.0
0.0
0.0
0.0
0.0
0.0
0.0
0.0
0.0
0.0
-0.4924469292163849
-0.4725779592990875
-0.4484805464744568
-0.41809749603271484
-0.3792201578617096
-0.3300907611846924
-0.2700294852256775
-0.19981180131435394
-0.12164287269115448
-0.038733042776584625
0.04540397599339485
0.12773525714874268
0.2063288539648056
0.2805682122707367
0.35084739327430725
0.41792380809783936
0.48237040638923645
0.5445721745491028
0.6053679585456848
0.6669310331344604
0.7331721782684326
0.8090997934341431
0.8991484045982361
1.0051524639129639
1.1249678134918213
1.2525063753128052
1.379258155822754
1.496647834777832
1.598201870918274
1.6806206703186035
1.743294358253479
1.7863919734954834
1.808253526687622
1.8032779693603516
1.7615481615066528
1.6708447933197021
1.5206210613250732
1.306455373764038
1.0331690311431885
0.715403139591217
0.3756008446216583
0.04021965339779854
-0.26479649543762207
-0.5184914469718933
-0.7086248397827148
-0.8337761163711548
-0.9029043316841125
-0.9320773482322693
-0.9393171072006226
-0.9395516514778137
-0.9416675567626953
-0.9485018253326416
-0.9590573906898499
-0.9712743759155273
-0.9838561415672302
-0.9966242909431458
-1.009891390800476
-1.0237371921539307
-1.0377691984176636
-1.0513464212417603
-1.0638962984085083
-1.075053095817566
-1.0846418142318726
-1.092661738395691
-1.09932279586792
-1.1050517559051514
-1.110405445098877
-1.1159478425979614
-1.1221933364868164
-1.129626750946045
-1.138706088066101
0.0
0.0
0.0
0.0
0.0
0.0
0.0
0.0
0.0
0.0
0.0
0.0
0.0
0.0
0.0
0.0
0.0
0.0
0.0
0.0
0.0
0.0
0.0
0.0
0.0
0.0
0.0
0.0
0.0
0.0
0.0
0.0
0.0
0.0
0.0
0.0
-0.36894065141677856
-0.3672375977039337
-0.36873045563697815
-0.37370216846466064
-0.38184306025505066
-0.39194339513778687
-0.40178245306015015
-0.40852415561676025
-0.4096364378929138
-0.4039982259273529
-0.39272865653038025
-0.37938398122787476
-0.3693597614765167
-0.3684993088245392
-0.3810966908931732
-0.40774238109588623
-0.44368976354599
-0.4784421920776367
-0.49695709347724915
-0.48230335116386414
-0.41901320219039917
-0.2960782051086426
-0.10878750681877136
0.14074638485908508
0.4439905285835266
0.7869207859039307
1.151393175125122
1.5170186758041382
1.8632954359054565
2.1712515354156494
2.423708915710449
2.6038804054260254
2.693291664123535
2.671243667602539
2.5181539058685303
2.2234387397766113
1.7955455780029297
1.269036054611206
0.7033898234367371
0.17140448093414307
-0.25965771079063416
-0.5467862486839294
-0.6819803714752197
-0.690937340259552
-0.6211073994636536
-0.5247990489006042
-0.4440714418888092
-0.4021725058555603
-0.4028376042842865
-0.43564870953559875
-0.4840134382247925
-0.5323894619941711
-0.5706534385681152
-0.5951617360115051
-0.607337474822998
-0.6111782193183899
-0.6109622716903687
-0.6099014282226562
-0.6098582744598389
-0.6117699146270752
-0.6162322759628296
-0.6237984895706177
-0.6348319053649902
-0.6490781307220459
-0.6653229594230652
-0.6814801096916199
-0.6951767802238464
-0.7045676708221436
-0.7089424133300781
-0.7088491320610046
-0.7057838439941406
0.0
0.0
0.0
0.0
0.0
0.0
0.0
0.0
0.0
0.0
0.0
0.0
0.0
0.0
0.0
0.0
0.0
0.0
0.0
0.0
0.0
0.0
0.0
0.0
0.0
0.0
0.0
0.0
0.0
0.0
0.0
0.0
0.0
0.0
0.0
0.0
0.5831156373023987
0.6016691327095032
0.6238890886306763
0.6521930694580078
0.6901381611824036
0.7427489161491394
0.8160659670829773
0.9153677225112915
1.042146921157837
1.1908448934555054
1.347009539604187
1.4884461164474487
1.5898914337158203
1.6301754713058472
1.5994259119033813
1.5033459663391113
1.3623286485671997
1.205061435699463
1.058574914932251
0.9383379817008972
0.8421868085861206
0.7505089640617371
0.6327475905418396
0.45793262124061584
0.20553579926490784
-0.12697747349739075
-0.5221182107925415
-0.9460464715957642
-1.3563258647918701
-1.71120285987854
-1.9779107570648193
-2.138211965560913
-2.1902990341186523
-2.147003650665283
-2.031076431274414
-1.8689789772033691
-1.68498957157135
-1.4971438646316528
-1.3157771825790405
-1.144511342048645
-0.9828758239746094
-0.8294352889060974
-0.6843253374099731
-0.5503917336463928
-0.43265700340270996
-0.33645305037498474
-0.2650206983089447
-0.21757067739963531
-0.18865381181240082
-0.16921183466911316
-0.14899832010269165
-0.11949942260980606
-0.0763101577758789
-0.020173074677586555
0.04358736798167229
0.10692094266414642
0.16148997843265533
0.2009119987487793
0.22223569452762604
0.2263868749141693
0.21760021150112152
0.20208467543125153
0.1863449662923813
0.17564688622951508
0.17302680015563965
0.17901577055454254
0.191983163356781
0.20885442197322845
0.22597554326057434
0.2399669736623764
0.2484293133020401
0.0
0.0
0.0
0.0
0.0
0.0
0.0
0.0
0.0
0.0
0.0
0.0
0.0
0.0
0.0
0.0
0.0
0.0
0.0
0.0
0.0
0.0
0.0
0.0
0.0
0.0
0.0
0.0
0.0
0.0
0.0
0.0
0.0
0.0
0.0
0.0
-0.20519688725471497
-0.21604138612747192
-0.22443050146102905
-0.22990860044956207
-0.23329530656337738
-0.23565128445625305
-0.2373242974281311
-0.23780255019664764
-0.23634199798107147
-0.23274067044258118
-0.22770224511623383
-0.22275052964687347
-0.22005455195903778
-0.22247235476970673
-0.23372028768062592
-0.258236825466156
-0.3004165589809418
-0.3633703291416168
-0.4476456344127655
-0.5500017404556274
-0.6617742776870728
-0.7664996385574341
-0.8375400304794312
-0.837593674659729
-0.7221568822860718
-0.44811272621154785
0.01281443890184164
0.6578425765037537
1.4387847185134888
2.2566847801208496
2.9726109504699707
3.4372708797454834
3.533689260482788
3.218806028366089
2.546358585357666
1.658089280128479
0.7427390217781067
-0.022658267989754677
-0.5253103971481323
-0.741779625415802
-0.7281295657157898
-0.5841834545135498
-0.4109668433666229
-0.27935791015625
-0.21864980459213257
-0.22294791042804718
-0.2668714225292206
-0.32158657908439636
-0.3656882047653198
-0.389539897441864
-0.3942779004573822
-0.38762179017066956
-0.3787269592285156
-0.37404802441596985
-0.37551096081733704
-0.38118547201156616
-0.3875069320201874
-0.39153987169265747
-0.3921095132827759
-0.38958778977394104
-0.38500285148620605
-0.3793211281299591
-0.37323594093322754
-0.36722204089164734
-0.3615381121635437
-0.3561766743659973
-0.3509754240512848
-0.34594354033470154
-0.34153783321380615
-0.3385542035102844
-0.33761584758758545
0.0
0.0
0.0
0.0
0.0
0.0
0.0
0.0
0.0
0.0
0.0
0.0
0.0
0.0
0.0
0.0
0.0
0.0
0.0
0.0
0.0
0.0
0.0
0.0
0.0
0.0
0.0
0.0
0.0
0.0
0.0
0.0
0.0
0.0
0.0
0.0
-0.25367599725723267
-0.29556065797805786
-0.3299844563007355
-0.3572874069213867
-0.37836775183677673
-0.3944220542907715
-0.40659645199775696
-0.41559091210365295
-0.4214857220649719
-0.4240093231201172
-0.42315319180488586
-0.41975414752960205
-0.41568315029144287
-0.4135535657405853
-0.4160778224468231
-0.4251684844493866
-0.44074442982673645
-0.45926859974861145
-0.4724106788635254
-0.46666914224624634
-0.42485514283180237
-0.3297199010848999
-0.16885659098625183
0.06101355329155922
0.352362722158432
0.688671350479126
1.0488449335098267
1.4119678735733032
1.7600383758544922
2.0775647163391113
2.3487491607666016
2.5544075965881348
2.6710920333862305
2.6740174293518066
2.543759822845459
2.2748520374298096
1.8829619884490967
1.4070147275924683
0.9039568305015564
0.43663904070854187
0.058384235948324203
-0.20039261877536774
-0.33864566683769226
-0.38202235102653503
-0.3723430037498474
-0.3533066511154175
-0.35748669505119324
-0.39873841404914856
-0.47185298800468445
-0.5586076378822327
-0.6372238993644714
-0.691357433795929
-0.7153796553611755
-0.7145540118217468
-0.7009327411651611
-0.6874035000801086
-0.6826464533805847
-0.6888549327850342
-0.7025330662727356
-0.7173389196395874
-0.7273640632629395
-0.729491651058197
-0.7241671681404114
-0.7146220803260803
-0.7051122188568115
-0.6990195512771606
-0.6976585984230042
-0.7002795338630676
-0.7051502466201782
-0.7110029458999634
-0.7179135680198669
0.0
0.0
0.0
0.0
0.0
0.0
0.0
0.0
0.0
0.0
0.0
0.0
0.0
0.0
0.0
0.0
0.0
0.0
0.0
0.0
0.0
0.0
0.0
0.0
0.0
0.0
0.0
0.0
0.0
0.0
0.0
0.0
0.0
0.0
0.0
0.0
